A0 f*d (MHz*mm),A0 Phase velocity (m/ms),A0 Energy velocity (m/ms),A0 Propagation time (micsec),A0 Coincidence angle (deg),A0 Wavelength/d (),A0 Wavenumber*d (rad),A0 Attenuation*d (Np/m*mm),A1 f*d (MHz*mm),A1 Phase velocity (m/ms),A1 Energy velocity (m/ms),A1 Propagation time (micsec),A1 Coincidence angle (deg),A1 Wavelength/d (),A1 Wavenumber*d (rad),A1 Attenuation*d (Np/m*mm)
3e-06,0.00539306570053101,0.0664909522193892,1503.96402310568,90,1797.68856684367,0.00349514672511459,0,1.60858415575027,21.0403079943024,1.55746096065607,64.2070668390146,0.934079622023729,13.0800169323369,0.480365227329796,0
0.0006,0.0762538316345215,0.152409175623543,656.128475145119,90,127.089719390869,0.049438973799725,0,1.6092,20.9403079943024,1.56442310740789,63.9213263512141,0.938540697659437,13.0128685025493,0.482843986777293,0
0.0012,0.107815148384466,0.215395047598534,464.263227566801,90,89.8459569870553,0.0699328664069419,0,1.6098,20.8443164045938,1.57116278653358,63.6471286470754,0.942863225029973,12.948388871036,0.485248425094362,0
0.0018,0.132016605961342,0.26362779215404,379.322677563408,90,73.3425588674124,0.0856690222458455,0,1.6104,20.7497079803602,1.57786025832687,63.3769685701051,0.947162606602855,12.8848161825386,0.487642603368647,0
0.0024,0.152405665300866,0.304208017652204,328.722433983736,90,63.5023605420275,0.0989441219751384,0,1.611,20.6564501653307,1.58451609337501,63.110750605884,0.951439160229291,12.8221292149787,0.490026672000749,0
0.003,0.170356743783207,0.339888134226112,294.214448608773,90,56.785581261069,0.110647547628208,0,1.6116,20.5645114648371,1.59113084924843,62.8483823610328,0.955693196382339,12.7603074366078,0.492400777833448,0
0.0036,0.186574891214166,0.372080757321764,268.758859554575,90,51.8263586706015,0.121235322495148,0,1.6122,20.47386140087,1.59770507098068,62.589774431034,0.959925018436015,12.6993309768453,0.494765064288483,0
0.0042,0.20147903706875,0.401625641094357,248.988086835089,90,47.9711993020833,0.130978282773654,0,1.6128,20.3844704691842,1.60423929154649,62.3348402741087,0.964134922944615,12.6391805984525,0.497119671503774,0
0.0048,0.215342200825356,0.42907032164001,233.062029594067,90,44.8629585052826,0.140052852431472,0,1.6134,20.2963101032416,1.61073403197848,62.0834961046731,0.968323199688471,12.5798376740062,0.499464736350499,0
0.0054,0.228354064897801,0.4547953858812,219.879099710395,90,42.287789795889,0.148581548894059,0,1.614,20.2093526313856,1.61718980210086,61.8356607678899,0.972490132121906,12.5212841582315,0.501800392657732,0
0.006,0.240652769124199,0.479078136399324,208.734217661412,90,40.1087948540331,0.156653555162797,0,1.6146,20.1235712468995,1.62360710044421,61.5912556508535,0.976635997289556,12.4635025683758,0.504126771163205,0
0.0066,0.252342620098994,0.502128060100287,199.152383517519,90,38.2337303180294,0.164336183127198,0,1.6152,20.0389399671461,1.62998641507532,61.3502045631338,0.980761066339652,12.4064759578666,0.5064439997722,0
0.0072,0.263504673206538,0.524108025973386,190.800359933961,90,36.5978712786859,0.171681715019278,0,1.6158,19.9554336065426,1.63632822351529,61.1124336565997,0.984865604444317,12.3501878985905,0.508752203510739,0
0.0078,0.274203403202404,0.545147649545392,183.436542528234,90,35.1542824618466,0.178731718219503,0,1.6164,19.873027743376,1.64263299321304,60.8778713280299,0.988949871082729,12.2946224594011,0.511051504666182,0
0.0084,0.284491096928293,0.565352096420926,176.88092187695,90,33.8679877295587,0.185519888496235,0,1.617,19.7916986893646,1.64890118191592,60.6464481296607,0.993014120258457,12.2397641863726,0.513342022894124,0
0.009,0.29441085543035,0.584808099421604,170.996263729766,90,32.7123172700389,0.192073990213293,0,1.6176,19.7114234643354,1.65513323774357,60.4180966943357,0.99705860052355,12.1855980862607,0.515623875225614,0
0.0096,0.303998710799239,0.603588202271724,165.675869116776,90,31.6665323749208,0.198417219567613,0,1.6182,19.6321797656128,1.66132959975433,60.1927516459032,1.00108355532582,12.1321096067314,0.517897176241583,0
0.0102,0.313285144880687,0.621753805200936,160.835364678922,90,30.7142298902635,0.204569195764579,0,1.6188,19.5539459455753,1.66749069797088,59.9703495327964,1.00508922300302,12.0792846216798,0.52016203806495,0
0.0108,0.32229622391987,0.639357440131476,156.407032628628,90,29.8422429555435,0.210546684327306,0,1.6194,19.4767009857765,1.67361695374851,59.7508287520771,1.00907583700215,12.02710941446,0.522418570469262,0
0.0114,0.33105444244343,0.65644446376874,152.33581135849,90,29.0398633722307,0.216364148365377,0,1.62,19.4004244739624,1.6797087799966,59.5341294817797,1.0130436260034,11.9755706629398,0.524666880938197,0
0.012,0.339579374474542,0.673054364092927,148.576408288756,90,28.2982812062118,0.222034167424994,0,1.6206,19.3250965820065,1.68576658140024,59.3201936159736,1.01699281404486,11.9246554251552,0.526907074725627,0
0.0126,0.347888178290135,0.689221773255304,145.091179472877,80.383851719806,27.6101728801694,0.227567764042955,0,1.6212,19.2506980429538,1.69179075478398,59.1089646974508,1.02092362074169,11.8743511244472,0.529139254964728,0
0.0132,0.355995995474436,0.704977268593814,141.848545272198,74.4707679745149,26.9693935965482,0.232974660134137,0,1.6218,19.1772101348322,1.69778168900088,58.9003878695668,1.02483626119316,11.8246455388039,0.531363522615592,0
0.0138,0.363916268762075,0.720348010584599,138.821789649762,70.4799295158362,26.3707441131938,0.238263481690529,0,1.6224,19.1046146558105,1.70373976557826,58.6944098038702,1.02873094638903,11.7755267848931,0.533579976671646,0
0.0144,0.371660995266915,0.735358251582985,135.988138821769,67.3514183882614,25.8097913379802,0.243441925775418,0,1.623,19.032893908961,1.70966535865468,58.4909786548457,1.0326078831496,11.7269833080475,0.535788714124616,0
0.015,0.379240938241401,0.750029760824152,133.328042730088,64.7477270122606,25.2827292160934,0.248516892835292,0,1.6236,18.9620306852953,1.71555883510754,58.2900440099052,1.03646727419157,11.6790038712092,0.537989829994725,0
0.0156,0.386665795679477,0.764382163314679,130.82461208456,62.5074621895612,24.7862689538126,0.253494598920387,0,1.6242,18.892008242444,1.72142055509675,58.0915568272505,1.04030931846978,11.6315775412166,0.540183417504209,0
0.0162,0.393944344494461,0.778433229327582,128.463169649606,60.5379154101367,24.3175521292877,0.258380665692588,0,1.6248,18.8228102930035,1.72725087186708,57.895469400982,1.04413421102949,11.5846936810706,0.542369567996979,0
0.0168,0.401084557163942,0.792199108997305,126.230891784985,58.7797662150904,23.874080783568,0.263180197978729,0,1.6254,18.75442098673,1.73305013210524,57.7017353090207,1.04794214322586,11.5383419384336,0.54454837104893,0
0.0174,0.408093701834842,0.805694533405109,124.116517928165,57.192241854189,23.4536610249909,0.267897847610425,0,1.626,18.6868248955868,1.73881867611153,57.5103093691327,1.05173330282153,11.4925122359082,0.546719914515109,0
0.018,0.414978426964042,0.81893298475794,122.110113844734,55.7458508581936,23.0543570535579,0.272537867466138,0,1.6266,18.6200069988179,1.74455683801622,57.3211475951178,1.0555078741144,11.4471947613537,0.548884284592757,0
0.0186,0.42174483289342,0.831926840297944,120.202877411896,54.4184305198439,22.6744533813666,0.277104157771802,0,1.6272,18.5539526712003,1.75026494577027,57.1342071619855,1.05926603791608,11.4023799601772,0.551041565806754,0
0.0192,0.428398532397107,0.844687494170776,118.386978249476,53.1928237685413,22.3124235623493,0.281600306198114,0,1.6278,18.4886476675508,1.75594332149611,56.9494463607157,1.06300797176996,11.3580585253414,0.553191841119757,0
0.0198,0.434944705166397,0.857225466839785,116.655423652608,52.0554293105442,21.9669043013332,0.286029620787225,0,1.6284,18.4240781124418,1.76159228143475,56.7668245676881,1.06673384990132,11.3142213905931,0.555335191903136,0
0.0204,0.441388141082059,0.869550492420373,115.001947410383,50.9952537711529,21.6366735824539,0.290395160939845,0,1.629,18.3602304846846,1.76721213638216,56.586302199531,1.07044384349381,11.270859720494,0.557471698077724,0
0.021,0.447733283028077,0.881671604474556,113.420914876346,50.0032663854321,21.3206325251465,0.294699760889782,0,1.6296,18.2970916096785,1.77280319148286,56.4078406900628,1.07413812053795,11.227964905301,0.559601438032029,0
0.0216,0.453984258958641,0.893597200852086,111.907244007306,49.0719467793489,21.0177897666037,0.298946053650383,0,1.6302,18.2346486457791,1.77836574657607,56.2314024505545,1.07781684604833,11.1855285521894,0.561724488732342,0
0.0222,0.460144911461897,0.90533510328703,110.456337810085,48.1949585675167,20.7272482640494,0.303136491015911,0,1.6308,18.172889072906,1.78390009638534,56.0569508363316,1.0814801821772,11.1435424778673,0.563840925779114,0
0.0228,0.466218827835274,0.916892617575957,109.064025691881,47.3669078954673,20.4481942033015,0.307273358454563,0,1.6314,18.1118006837366,1.78940653051212,55.8844501206667,1.08512828819745,11.1019987027931,0.565950823395327,0
0.0234,0.472209361619081,0.928276577174383,107.726514337347,46.5831623372303,20.1798872486787,0.311358791540869,0,1.632,18.0513715751776,1.79488533343182,55.7138654695004,1.08876132048701,11.0608894455745,0.568054254415633,0
0.024,0.478119653473401,0.939493385193151,106.440344951914,45.839711907342,19.9216522280584,0.315394789310202,0,1.6326,17.9915901344319,1.80033678500529,55.5451629011214,1.09237943285925,11.0202071140708,0.570151290455977,0
0.0246,0.483952647071751,0.950549046851674,105.202356818106,45.1330612635687,19.672871832185,0.31938322786713,0,1.6332,17.9324450321743,1.80576116038659,55.3783092657675,1.09598277648952,10.979944300866,0.572242001872817,0
0.0252,0.489711112593931,0.961449215835778,104.009653711217,44.4601436102463,19.4329806584893,0.323325866350552,0,1.6338,17.8739252168423,1.81115872984979,55.2132722283781,1.09957149978694,10.9400937794358,0.574326457693638,0
0.0258,0.495397653226622,0.972199208521674,102.859577670362,43.8182536804514,19.2014594273885,0.327224361822071,0,1.6344,17.8160198999044,1.81652975946367,55.0500202262171,1.10314574883609,10.900648494802,0.576404725845049,0
0.0264,0.501014724781125,0.982804042641661,101.749683213768,43.2049920960413,18.9778304841335,0.331080273502952,0,1.635,17.7587185535193,1.8218745106653,54.888522461123,1.10670566709938,10.8616015617855,0.578476872995028,0
0.027,0.506564642359339,0.993268451451461,100.677716939333,42.6182212496755,18.7616534207163,0.334895073812727,0,1.6356,17.7020108974058,1.82719324084471,54.7287488617077,1.11025139579947,10.8229462566678,0.580542964750347,0
0.0276,0.512049596519229,1.00359691557025,99.6415975861976,42.0560279632797,18.5525216130155,0.338670151596622,0,1.6362,17.6458868968934,1.83248620292381,54.5706700767765,1.1137830736252,10.7846760157031,0.582603065500617,0
0.0282,0.517471657843664,1.01379367290027,98.6394003761324,41.5166935836834,18.3500587887824,0.342406821662095,0,1.6368,17.5903367495173,1.83775364601892,54.4142574368592,1.11730083716766,10.7467844266357,0.584657238644038,0
0.0288,0.522832788500205,1.02386274155413,97.6693417402893,40.9986682638088,18.1539162673682,0.346106328499137,0,1.6374,17.5353508843332,1.84299581494152,54.2594829512259,1.12080482057337,10.7092652280037,0.586705546403845,0
0.0294,0.528134849137786,1.03380793392071,96.7297664477684,40.5005497053436,17.9637703788362,0.349769852022938,0,1.638,17.4809199482333,1.84821295093681,54.1063192687361,1.12429515603306,10.6721123005087,0.588748050081903,0
0.03,0.533379606968723,1.04363287285119,95.8191358296344,40.0210650077527,17.7793202322908,0.35339851159034,0,1.6386,17.4270348064556,1.85340529110762,53.9547396782485,1.12777197338273,10.6353196670667,0.590784809847893,0
0.0306,0.538568741056034,1.05334100250106,94.9360176453389,39.5590554173389,17.6002856554259,0.356993371027621,0,1.6392,17.3736865311482,1.85857306898444,53.8047180758097,1.1312354004796,10.5988814855711,0.592815884934015,0
0.0312,0.543703848855585,1.06293560148251,94.0790767197252,39.1134631263033,17.426405412038,0.360555442078676,0,1.6398,17.3208663979006,1.86371651436074,53.6562289540586,1.13468556308148,10.5627920465305,0.594841333569888,0
0.0318,0.548786452407224,1.07241979523649,93.2470665351227,38.6833199125785,17.25743561029,0.364085687414249,0,1.6404,17.2685658773818,1.86883585361397,53.5092473780504,1.13812258505537,10.5270457677285,0.596861213089925,0
0.0324,0.553818002685996,1.08179656492895,92.4388219023117,38.2677374423106,17.0931482310493,0.36758502425939,0,1.641,17.2167766321939,1.87393130954289,53.3637489756191,1.14154658825846,10.4916371920743,0.598875579869088,0
0.033,0.558799882977848,1.09106875446582,91.6532524560831,37.8658989029022,16.9333297872075,0.371054328129031,0,1.6416,17.1654905121618,1.87900310136806,53.2197099234122,1.14495769252944,10.456560984504,0.600884489316409,0
0.0336,0.563733415793637,1.10023908402469,90.8893361924565,37.4770514106087,16.7777802319535,0.374494433728079,0,1.6422,17.1146995449402,1.8840514452079,53.0771069199573,1.14835601600367,10.4218119260384,0.602887996038516,0
0.0342,0.568619864295364,1.10931015334304,90.1461144105081,37.1004997666351,16.6263118215019,0.377906139054478,0,1.6428,17.0643959341348,1.88907655383893,52.9359171796307,1.15174167494211,10.3873849124269,0.604886153748163,0
0.0348,0.573460436562439,1.11828445023331,89.4226866689751,36.7356007424802,16.4787481770816,0.381290207220847,0,1.6434,17.0145720542781,1.89407863677478,52.7961184179127,1.15511478377685,10.3532749508812,0.606879015286349,0
0.0354,0.578256288931419,1.12716435733443,88.7182063106438,36.3817580963076,16.3349234161418,0.38464736853132,0,1.644,16.9652204451807,1.89905790042277,52.6576888349416,1.15847545520988,10.319477156436,0.608866632672464,0
0.036,0.58300853132134,1.13595216244113,88.0318760827943,36.0384180109808,16.1946814255928,0.387978320910354,0,1.6446,16.916333808014,1.9040145480836,52.5206071038955,1.16182380020501,10.2859867493701,0.610849057098424,0
0.0366,0.587718225232304,1.14465005537628,87.3629451466954,35.7050655505455,16.0578750063471,0.39128373490864,0,1.6452,16.8679049984394,1.90894878026085,52.3848523512167,1.16515992819196,10.2527990508384,0.612826339034293,0
0.0372,0.592386390954604,1.15326014168926,86.7107050569903,35.3812208621738,15.924365348242,0.394564252312461,0,1.6458,16.8199270275623,1.91386079419718,52.2504041585467,1.16848394674179,10.2199094832679,0.614798528056091,0
0.0378,0.597014006109103,1.1617844404671,86.0744872429127,35.0664363654536,15.7940213256377,0.397820490275039,0,1.6464,16.7723930515105,1.91875078456764,52.1172425331585,1.1717959620338,10.1873135638427,0.616765673089734,0
0.0384,0.601602011834463,1.17022489608179,85.4536596639033,34.7602937226463,15.6667190581891,0.401053040131929,0,1.647,16.7252963733241,1.9236189429427,51.9853479125251,1.17509607848091,10.1550069054791,0.618727822212459,0
0.039,0.606151311870311,1.17858337692497,84.8476246635255,34.4624015776539,15.542341330008,0.404262470741682,0,1.6476,16.6786304336401,1.92846545839915,51.8547011378736,1.17838439914122,10.1229852109979,0.620685022867896,0
0.0396,0.610662775745311,1.18686168162489,84.2558164512428,34.1723932540828,15.4207771652856,0.407449328904378,0,1.6482,16.63238881123,1.93329051713967,51.7252834550451,1.18166102545042,10.091244273286,0.622637321723816,0
0.0402,0.615137240486165,1.19506154252411,83.6776989650157,33.8899247687922,15.3019214051285,0.41061414059242,0,1.6488,16.5865652169413,1.93809430279631,51.5970764971131,1.18492605742335,10.0597799714588,0.624584764776761,0
0.0408,0.619575511588495,1.20318462780488,83.1127639840634,33.6146730784416,15.1856743036396,0.413757412515668,0,1.6494,16.5411534914379,1.94287699635532,51.4700622775358,1.18817959359582,10.0285882693331,0.626527397320046,0
0.0414,0.623978366592591,1.21123254829773,82.5605290582227,33.3463343305735,15.0719412220433,0.416879631801523,0,1.65,16.4961476008538,1.94763877630756,51.3442231775574,1.19142173112161,9.99766521263866,0.6284652639935,0
0.042,0.628346553922834,1.21920685571695,82.0205361634024,33.0846225561298,14.9606322362579,0.419981268702798,0,1.6506,16.4515416346987,1.95237981857451,51.2195419398531,1.19465256571528,9.9670069276013,0.630398408751957,0
0.0426,0.632680795677624,1.22710904799207,81.4923499778856,32.8292682459404,14.8516618703668,0.423062776544644,0,1.6512,16.4073298017111,1.95710029665785,51.0960016565173,1.19787219174892,9.93660961828433,0.632326874914952,0
0.0432,0.636981789663853,1.23494057324912,80.9755563677858,32.5800170959518,14.7449488348114,0.42612459206,0,1.6518,16.3635064265345,1.96180038171353,50.9735857593498,1.20108070229735,9.90646956443546,0.634250705189306,0
0.0438,0.641250208789146,1.24270282896516,80.4697612890069,32.3366290099694,14.6404157257796,0.429167137386395,0,1.6524,16.3200659464916,1.96648024262533,50.8522780104293,1.20427818918313,9.87658311939701,0.636169941691656,0
0.0444,0.645486703020834,1.25039716578445,79.9745894635519,32.0988770424495,14.5379888067755,0.432190820249584,0,1.653,16.2770029118506,1.97114004571355,50.7320625023374,1.2074647427693,9.84694671013345,0.638084625837732,0
0.045,0.64969190190212,1.25802489226676,79.4896830855359,31.8665463987436,14.4375978200471,0.435196033681944,0,1.6536,16.2343119786233,1.97577995524715,50.61292363779,1.21064045230765,9.81755683274271,0.639994798525069,0
0.0456,0.653866412588552,1.26558727161124,79.0147011139646,31.6394337592814,14.3391757146612,0.438183158656413,0,1.6542,16.1919879076421,1.9804001332978,50.4948461266149,1.21380540583253,9.78841005177251,0.641900500075782,0
0.0462,0.65801082417643,1.27308552963322,78.5493179148852,31.4173463215466,14.2426585319574,0.441152562429375,0,1.6548,16.1500255629717,1.98500073966898,50.3778149809034,1.21695969010615,9.75950299913689,0.64380177020646,0
0.0468,0.662125704463752,1.28052084919202,78.0932228187445,31.2001013157301,14.1479851381144,0.44410460188093,0,1.6554,16.1084199090367,1.98958193197001,50.2618155066296,1.22010339066426,9.73083237225847,0.645698648051143,0
0.0474,0.66621160663711,1.28789438234437,77.6461186343315,30.9875250430601,14.0550971864369,0.447039620134596,0,1.656,16.0671660058773,1.99414386590322,50.146833290138,1.22323659201039,9.7023949310853,0.647591172262945,0
0.048,0.670269062936783,1.29520723922389,77.207721646091,30.779452653212,13.963938811183,0.449957951845773,0,1.6566,16.0262590097326,1.99868669497905,50.0328541993162,1.22635937741287,9.67418749832949,0.649479380905585,0
0.0486,0.674298591239396,1.30246049997842,76.777760248128,30.5757272864117,13.8744566098641,0.45285991976886,0,1.6572,15.9856941684427,2.00321057080181,49.9198643705108,1.22947182909833,9.64620695657901,0.651363311554731,0
0.0492,0.678300694207813,1.30965521342442,76.3559744388945,30.3761996495922,13.7865994757686,0.455745836253745,0,1.6578,15.94546682145,2.00771564285861,49.8078502081196,1.23257402809988,9.61845024819039,0.653243001216511,0
0.0498,0.682275857277608,1.31679239363683,75.942115464239,30.1807276793474,13.7003184192291,0.458616005476254,0,1.6584,15.9055723953615,2.01220205880278,49.6967983719775,1.23566605444951,9.59091437250453,0.655118486428403,0
0.0504,0.686224553226938,1.32387302823339,75.5359448129574,29.9891759105846,13.6155665322805,0.461470721198642,0,1.659,15.8660064027825,2.01666996438425,49.5866957737594,1.23874798712494,9.56359638504066,0.656989803230061,0
0.051,0.690147239533061,1.33089807384503,75.1372339965112,29.8014152343717,13.5322988143737,0.46431026933175,0,1.6596,15.8267644411665,2.02111950338144,49.4775295734343,1.24181990399724,9.53649339670191,0.658856987134553,0
0.0516,0.694044361076827,1.3378684610494,74.7457638111611,29.6173224202041,13.450472113892,0.467134926861798,0,1.6602,15.7878421886126,2.0255508178808,49.3692871673412,1.24488188202154,9.50960257114361,0.660720073228463,0
0.0522,0.697916351016616,1.34478509605833,74.3613238227491,29.4367797566684,13.3700450386325,0.469944961967177,0,1.6608,15.7492354034574,2.02996404813872,49.2619561867071,1.24793399713607,9.48292112443242,0.662579096117458,0
